Time,Bacteroides theta,Bacteroides fragilis,Bifido longum,Bifido breve,Bifido adolescentis,Eubacterium hallii,Faecalibacterium prausnitzii,Roseburia intestinalis
0,0.01,0.01,0.01,0.01,0.01,0.01,0.01,0.01
0.02,0.010007264,0.010026491,0.010058011,0.010191455,0.010085567,0.010031077,0.010014819,0.010014956
0.04,0.010014594,0.010053106,0.010116359,0.010390327,0.010172196,0.010063341,0.010029746,0.010030009
0.06,0.010021991,0.010079847,0.010175047,0.010596833,0.010259902,0.010096828,0.010044783,0.01004516
0.08,0.010029456,0.010106715,0.010234081,0.010811177,0.010348699,0.010131579,0.01005993,0.01006041
0.1,0.010036989,0.01013371,0.010293465,0.011033567,0.010438604,0.010167634,0.010075189,0.010075759
0.12,0.01004459,0.010160834,0.010353203,0.011264216,0.010529632,0.010205034,0.010090559,0.010091207
0.14,0.01005226,0.010188087,0.0104133,0.011503345,0.010621799,0.010243822,0.010106042,0.010106756
0.16,0.010060001,0.010215471,0.01047376,0.01175118,0.010715121,0.010284042,0.010121639,0.010122405
0.18,0.010067812,0.010242986,0.010534587,0.012007953,0.010809614,0.01032574,0.010137349,0.010138157
0.2,0.010075693,0.010270634,0.010595788,0.012273905,0.010905295,0.010368962,0.010153175,0.01015401
0.22,0.010083647,0.010298415,0.010657365,0.012549282,0.011002179,0.010413756,0.010169117,0.010169967
0.24,0.010091672,0.01032633,0.010719324,0.012834337,0.011100284,0.010460171,0.010185175,0.010186027
0.26,0.01009977,0.010354381,0.01078167,0.013129332,0.011199627,0.010508259,0.01020135,0.010202192
0.28,0.010107942,0.010382568,0.010844407,0.013434536,0.011300224,0.010558072,0.010217644,0.010218461
0.3,0.010116187,0.010410893,0.01090754,0.013750225,0.011402093,0.010609664,0.010234057,0.010234836
0.32,0.010124508,0.010439356,0.010971074,0.014076685,0.011505252,0.01066309,0.01025059,0.010251317
0.34,0.010132903,0.010467958,0.011035015,0.01441421,0.011609718,0.010718409,0.010267243,0.010267906
0.36,0.010141374,0.010496701,0.011099366,0.014763101,0.011715509,0.010775679,0.010284018,0.010284602
0.38,0.010149922,0.010525586,0.011164133,0.015123671,0.011822642,0.010834961,0.010300916,0.010301406
0.4,0.010158547,0.010554613,0.011229321,0.015496241,0.011931138,0.010896319,0.010317937,0.010318319
0.42,0.01016725,0.010583784,0.011294935,0.01588114,0.012041013,0.010959817,0.010335081,0.010335342
0.44,0.010176031,0.0106131,0.01136098,0.01627871,0.012152286,0.011025522,0.010352351,0.010352476
0.46,0.010184891,0.010642562,0.011427462,0.016689302,0.012264978,0.011093504,0.010369747,0.010369721
0.48,0.010193831,0.010672171,0.011494385,0.017113276,0.012379105,0.011163833,0.01038727,0.010387077
0.5,0.010202852,0.010701928,0.011561756,0.017551004,0.012494689,0.011236584,0.01040492,0.010404546
0.52,0.010211954,0.010731835,0.011629578,0.01800287,0.012611749,0.011311833,0.010422699,0.010422129
0.54,0.010221137,0.010761892,0.011697858,0.01846927,0.012730304,0.011389658,0.010440607,0.010439826
0.56,0.010230403,0.0107921,0.011766601,0.018950608,0.012850375,0.01147014,0.010458645,0.010457637
0.58,0.010239752,0.010822462,0.011835813,0.019447305,0.012971981,0.011553364,0.010476815,0.010475565
0.6,0.010249185,0.010852977,0.011905498,0.019959792,0.013095144,0.011639416,0.010495117,0.010493608
0.62,0.010258702,0.010883648,0.011975663,0.020488513,0.013219884,0.011728387,0.010513553,0.010511769
0.64,0.010268305,0.010914474,0.012046313,0.021033926,0.013346222,0.011820368,0.010532122,0.010530047
0.66,0.010277994,0.010945459,0.012117454,0.021596501,0.01347418,0.011915456,0.010550826,0.010548444
0.68,0.010287769,0.010976602,0.012189091,0.022176725,0.013603778,0.012013751,0.010569667,0.010566961
0.7,0.010297632,0.011007906,0.01226123,0.022775097,0.013735039,0.012115355,0.010588644,0.010585598
0.72,0.010307583,0.01103937,0.012333878,0.023392131,0.013867985,0.012220376,0.01060776,0.010604356
0.74,0.010317623,0.011070998,0.012407039,0.024028358,0.014002637,0.012328922,0.010627014,0.010623235
0.76,0.010327752,0.011102789,0.01248072,0.024684323,0.014139019,0.01244111,0.010646408,0.010642238
0.78,0.010337972,0.011134745,0.012554927,0.025360588,0.014277154,0.012557057,0.010665944,0.010661363
0.8,0.010348283,0.011166868,0.012629666,0.026057732,0.014417063,0.012676886,0.010685621,0.010680613
0.82,0.010358686,0.011199158,0.012704943,0.026776349,0.014558771,0.012800725,0.010705441,0.010699988
0.84,0.010369182,0.011231617,0.012780763,0.027517054,0.014702302,0.012928706,0.010725405,0.010719489
0.86,0.010379771,0.011264247,0.012857134,0.028280476,0.014847678,0.013060967,0.010745514,0.010739117
0.88,0.010390455,0.011297049,0.012934061,0.029067267,0.014994925,0.013197649,0.01076577,0.010758872
0.9,0.010401233,0.011330023,0.01301155,0.029878093,0.015144067,0.013338901,0.010786172,0.010778756
0.92,0.010412107,0.011363172,0.013089609,0.030713645,0.015295128,0.013484876,0.010806722,0.010798769
0.94,0.010423078,0.011396497,0.013168243,0.031574631,0.015448134,0.013635734,0.010827422,0.010818912
0.96,0.010434147,0.01143,0.013247458,0.032461778,0.015603109,0.01379164,0.010848272,0.010839186
0.98,0.010445313,0.011463681,0.013327262,0.03337584,0.015760081,0.013952767,0.010869274,0.010859592
1,0.010456579,0.011497542,0.013407661,0.034317586,0.015919074,0.014119295,0.010890428,0.010880131
1.02,0.010467945,0.011531584,0.013488661,0.035287814,0.016080114,0.014291409,0.010911736,0.010900803
1.04,0.010479412,0.01156581,0.01357027,0.03628734,0.016243229,0.014468289,0.010933198,0.010921611
1.06,0.01049098,0.01160022,0.013652493,0.037317006,0.016408446,0.014647836,0.010954817,0.010942553
1.08,0.01050265,0.011634816,0.013735338,0.038377679,0.016575791,0.014830015,0.010976592,0.010963632
1.1,0.010514424,0.0116696,0.013818811,0.039470249,0.016745292,0.015014868,0.010998525,0.010984849
1.12,0.010526303,0.011704573,0.01390292,0.040595634,0.016916977,0.015202439,0.011020618,0.011006203
1.14,0.010538286,0.011739736,0.013987671,0.041754776,0.017090874,0.015392771,0.011042872,0.011027697
1.16,0.010550375,0.011775091,0.014073072,0.042948647,0.017267012,0.015585909,0.011065287,0.011049331
1.18,0.010562571,0.01181064,0.014159129,0.044178245,0.017445419,0.015781897,0.011087864,0.011071107
1.2,0.010574875,0.011846384,0.014245849,0.045444597,0.017626125,0.015980782,0.011110606,0.011093024
1.22,0.010587288,0.011882325,0.014333241,0.04674876,0.01780916,0.016182609,0.011133513,0.011115084
1.24,0.01059981,0.011918465,0.014421311,0.04809182,0.017994553,0.016387425,0.011156587,0.011137288
1.26,0.010612443,0.011954805,0.014510066,0.049474896,0.018182335,0.016595278,0.011179828,0.011159638
1.28,0.010625187,0.011991346,0.014599514,0.050899136,0.018372536,0.016806214,0.011203239,0.011182133
1.3,0.010638044,0.012028091,0.014689662,0.052365724,0.018565188,0.017020284,0.011226819,0.011204775
1.32,0.010651014,0.012065041,0.014780518,0.053875875,0.018760322,0.017237536,0.011250571,0.011227566
1.34,0.010664098,0.012102197,0.01487209,0.05543084,0.018957969,0.01745802,0.011274496,0.011250505
1.36,0.010677298,0.012139563,0.014964385,0.057031906,0.019158162,0.017681785,0.011298594,0.011273595
1.38,0.010690614,0.012177138,0.01505741,0.058680393,0.019360934,0.017908884,0.011322868,0.011296835
1.4,0.010704047,0.012214926,0.015151175,0.060377663,0.019566317,0.018139367,0.011347319,0.011320228
1.42,0.010717599,0.012252927,0.015245686,0.062125113,0.019774345,0.018373286,0.011371948,0.011343774
1.44,0.010731269,0.012291144,0.015340951,0.06392418,0.019985051,0.018610695,0.011396755,0.011367474
1.46,0.01074506,0.012329578,0.015436979,0.065776342,0.02019847,0.018851647,0.011421744,0.01139133
1.48,0.010758973,0.012368231,0.015533778,0.067683118,0.020414637,0.019096195,0.011446914,0.011415342
1.5,0.010773007,0.012407105,0.015631355,0.069646068,0.020633586,0.019344394,0.011472268,0.011439511
1.52,0.010787166,0.012446202,0.015729719,0.071666799,0.020855353,0.0195963,0.011497807,0.01146384
1.54,0.010801448,0.012485525,0.015828878,0.073746959,0.021079973,0.019851968,0.011523532,0.011488328
1.56,0.010815856,0.012525073,0.015928841,0.075888243,0.021307484,0.020111454,0.011549444,0.011512976
1.58,0.010830391,0.01256485,0.016029616,0.078092395,0.021537921,0.020374815,0.011575545,0.011537787
1.6,0.010845053,0.012604858,0.016131212,0.080361204,0.021771323,0.02064211,0.011601837,0.011562761
1.62,0.010859844,0.012645099,0.016233636,0.082696509,0.022007726,0.020913395,0.01162832,0.011587899
1.64,0.010874765,0.012685574,0.016336899,0.085100202,0.022247169,0.02118873,0.011654997,0.011613203
1.66,0.010889817,0.012726285,0.016441008,0.087574223,0.02248969,0.021468175,0.011681869,0.011638673
1.68,0.010905,0.012767235,0.016545972,0.090120569,0.022735328,0.021751788,0.011708937,0.011664311
1.7,0.010920318,0.012808425,0.016651801,0.092741288,0.022984124,0.022039631,0.011736202,0.011690118
1.72,0.010935769,0.012849859,0.016758502,0.095438486,0.023236116,0.022331764,0.011763667,0.011716095
1.74,0.010951356,0.012891537,0.016866086,0.098214324,0.023491346,0.022628249,0.011791333,0.011742244
1.76,0.01096708,0.012933461,0.016974561,0.101071023,0.023749853,0.022929149,0.011819201,0.011768565
1.78,0.010982941,0.012975635,0.017083937,0.104010863,0.024011681,0.023234526,0.011847273,0.01179506
1.8,0.010998942,0.01301806,0.017194223,0.107036187,0.024276871,0.023544444,0.011875551,0.01182173
1.82,0.011015083,0.013060738,0.017305428,0.110149397,0.024545465,0.023858965,0.011904035,0.011848577
1.84,0.011031365,0.013103672,0.017417561,0.113352962,0.024817506,0.024178156,0.011932728,0.011875601
1.86,0.01104779,0.013146864,0.017530633,0.116649415,0.025093038,0.02450208,0.011961632,0.011902804
1.88,0.01106436,0.013190316,0.017644653,0.120041358,0.025372104,0.024830803,0.011990747,0.011930187
1.9,0.011081074,0.01323403,0.01775963,0.123531458,0.02565475,0.025164391,0.012020076,0.011957752
1.92,0.011097934,0.013278009,0.017875574,0.127122455,0.025941021,0.025502911,0.012049621,0.011985499
1.94,0.011114943,0.013322254,0.017992496,0.130817159,0.026230962,0.02584643,0.012079382,0.012013431
1.96,0.0111321,0.01336677,0.018110405,0.134618454,0.02652462,0.026195014,0.012109362,0.012041548
1.98,0.011149408,0.013411556,0.018229311,0.138529298,0.02682204,0.026548733,0.012139562,0.012069852
2,0.011166867,0.013456617,0.018349224,0.142552725,0.027123272,0.026907654,0.012169984,0.012098344
2.02,0.011184479,0.013501955,0.018470155,0.146691846,0.027428362,0.027271847,0.012200631,0.012127026
2.04,0.011202246,0.013547571,0.018592113,0.150949853,0.027737359,0.02764138,0.012231502,0.012155898
2.06,0.011220168,0.013593469,0.01871511,0.155330018,0.028050312,0.028016323,0.012262601,0.012184963
2.08,0.011238247,0.013639651,0.018839156,0.159835694,0.028367272,0.028396747,0.01229393,0.012214221
2.1,0.011256485,0.01368612,0.018964261,0.164470321,0.028688287,0.028782723,0.012325489,0.012243675
2.12,0.011274882,0.013732878,0.019090436,0.169237422,0.02901341,0.02917432,0.012357281,0.012273325
2.14,0.01129344,0.013779928,0.019217692,0.174140608,0.029342691,0.029571611,0.012389307,0.012303174
2.16,0.011312161,0.013827272,0.01934604,0.179183578,0.029676183,0.029974667,0.01242157,0.012333222
2.18,0.011331046,0.013874913,0.01947549,0.184370122,0.030013939,0.03038356,0.012454072,0.01236347
2.2,0.011350097,0.013922854,0.019606054,0.189704121,0.030356012,0.030798362,0.012486814,0.012393922
2.22,0.011369314,0.013971097,0.019737743,0.195189549,0.030702457,0.031219147,0.012519798,0.012424577
2.24,0.0113887,0.014019645,0.019870568,0.200830475,0.031053327,0.031645986,0.012553026,0.012455438
2.26,0.011408256,0.014068502,0.020004541,0.206631064,0.031408678,0.032078954,0.012586501,0.012486505
2.28,0.011427983,0.014117669,0.020139673,0.212595579,0.031768567,0.032518123,0.012620223,0.012517782
2.3,0.011447883,0.01416715,0.020275975,0.218728379,0.03213305,0.032963567,0.012654196,0.012549268
2.32,0.011467957,0.014216948,0.02041346,0.225033927,0.032502185,0.03341536,0.012688421,0.012580966
2.34,0.011488208,0.014267065,0.020552138,0.231516783,0.032876029,0.033873575,0.0127229,0.012612878
2.36,0.011508636,0.014317504,0.020692023,0.238181613,0.033254642,0.034338287,0.012757635,0.012645004
2.38,0.011529243,0.014368269,0.020833125,0.245033183,0.033638083,0.034809571,0.012792629,0.012677347
2.4,0.011550031,0.014419363,0.020975458,0.252076367,0.034026412,0.035287499,0.012827883,0.012709908
2.42,0.011571001,0.014470787,0.021119032,0.25931614,0.03441969,0.035772146,0.0128634,0.012742688
2.44,0.011592155,0.014522547,0.021263861,0.266757587,0.03481798,0.036263587,0.012899181,0.012775691
2.46,0.011613495,0.014574644,0.021409957,0.274405899,0.035221343,0.036761896,0.012935229,0.012808916
2.48,0.011635023,0.014627082,0.021557332,0.282266372,0.035629843,0.037267147,0.012971546,0.012842366
2.5,0.011656739,0.014679863,0.021706,0.290344411,0.036043543,0.037779415,0.013008135,0.012876043
2.52,0.011678646,0.014732992,0.021855972,0.298645531,0.036462509,0.038298772,0.013044997,0.012909948
2.54,0.011700746,0.014786472,0.022007262,0.307175352,0.036886806,0.038825294,0.013082135,0.012944083
2.56,0.011723039,0.014840306,0.022159882,0.315939605,0.037316501,0.039359053,0.013119551,0.01297845
2.58,0.011745529,0.014894496,0.022313847,0.324944126,0.03775166,0.039900124,0.013157247,0.01301305
2.6,0.011768217,0.014949047,0.022469168,0.334194861,0.038192351,0.040448579,0.013195226,0.013047886
2.62,0.011791104,0.015003962,0.02262586,0.343697861,0.038638643,0.041004491,0.01323349,0.013082958
2.64,0.011814192,0.015059245,0.022783935,0.353459284,0.039090606,0.041567932,0.013272042,0.01311827
2.66,0.011837483,0.015114898,0.022943408,0.363485392,0.03954831,0.042138976,0.013310883,0.013153823
2.68,0.01186098,0.015170926,0.023104291,0.373782549,0.040011826,0.042717692,0.013350016,0.013189619
2.7,0.011884683,0.015227333,0.0232666,0.384357224,0.040481226,0.043304153,0.013389444,0.013225659
2.72,0.011908595,0.01528412,0.023430347,0.395215981,0.040956584,0.043898429,0.01342917,0.013261945
2.74,0.011932718,0.015341294,0.023595548,0.406365484,0.041437973,0.04450059,0.013469195,0.01329848
2.76,0.011957054,0.015398856,0.023762215,0.417812491,0.041925468,0.045110705,0.013509522,0.013335265
2.78,0.011981604,0.015456811,0.023930363,0.429563848,0.042419144,0.045728844,0.013550154,0.013372303
2.8,0.012006371,0.015515163,0.024100008,0.441626493,0.042919078,0.046355073,0.013591093,0.013409595
2.82,0.012031356,0.015573915,0.024271162,0.454007442,0.043425347,0.04698946,0.013632342,0.013447143
2.84,0.012056563,0.015633072,0.024443842,0.466713794,0.04393803,0.047632071,0.013673904,0.01348495
2.86,0.012081991,0.015692638,0.024618062,0.479752719,0.044457206,0.048282971,0.013715781,0.013523017
2.88,0.012107645,0.015752615,0.024793837,0.493131457,0.044982956,0.048942225,0.013757976,0.013561346
2.9,0.012133525,0.015813009,0.024971181,0.506857306,0.045515359,0.049609896,0.013800492,0.01359994
2.92,0.012159634,0.015873824,0.025150111,0.520937624,0.046054499,0.050286046,0.013843331,0.013638801
2.94,0.012185974,0.015935063,0.025330641,0.535379811,0.046600458,0.050970736,0.013886496,0.01367793
2.96,0.012212548,0.015996731,0.025512788,0.550191309,0.047153321,0.051664026,0.01392999,0.01371733
2.98,0.012239357,0.016058833,0.025696566,0.56537959,0.047713172,0.052365974,0.013973816,0.013757003
3,0.012266403,0.016121372,0.025881992,0.580952146,0.048280099,0.053076637,0.014017977,0.013796951
3.02,0.01229369,0.016184352,0.026069082,0.596916476,0.048854187,0.05379607,0.014062475,0.013837177
3.04,0.012321218,0.016247779,0.026257851,0.61328008,0.049435525,0.054524328,0.014107314,0.013877682
3.06,0.012348991,0.016311656,0.026448316,0.630050444,0.050024202,0.055261464,0.014152496,0.013918469
3.08,0.012377011,0.016375988,0.026640493,0.647235022,0.050620309,0.056007527,0.014198025,0.01395954
3.1,0.012405279,0.016440781,0.026834399,0.66484123,0.051223936,0.056762568,0.014243903,0.014000898
3.12,0.0124338,0.016506037,0.02703005,0.682876423,0.051835176,0.057526632,0.014290134,0.014042544
3.14,0.012462573,0.016571763,0.027227464,0.701347884,0.052454123,0.058299766,0.014336721,0.014084482
3.16,0.012491604,0.016637962,0.027426657,0.720262799,0.05308087,0.059082013,0.014383666,0.014126713
3.18,0.012520892,0.01670464,0.027627646,0.739628246,0.053715514,0.059873413,0.014430973,0.014169239
3.2,0.012550442,0.016771802,0.027830449,0.759451169,0.054358152,0.060674007,0.014478646,0.014212065
3.22,0.012580256,0.016839452,0.028035082,0.779738356,0.055008881,0.06148383,0.014526686,0.01425519
3.24,0.012610336,0.016907595,0.028241565,0.800496419,0.0556678,0.062302918,0.014575099,0.014298619
3.26,0.012640684,0.016976237,0.028449914,0.821731766,0.05633501,0.063131302,0.014623886,0.014342354
3.28,0.012671304,0.017045382,0.028660147,0.843450577,0.057010611,0.063969013,0.014673052,0.014386397
3.3,0.012702198,0.017115036,0.028872283,0.865658774,0.057694707,0.064816076,0.014722599,0.01443075
3.32,0.012733368,0.017185204,0.029086339,0.888361991,0.058387401,0.065672517,0.014772532,0.014475417
3.34,0.012764818,0.017255891,0.029302335,0.911565545,0.059088799,0.066538357,0.014822852,0.014520399
3.36,0.01279655,0.017327103,0.029520288,0.935274402,0.059799006,0.067413614,0.014873565,0.014565701
3.38,0.012828566,0.017398845,0.029740217,0.959493138,0.060518129,0.068298305,0.014924674,0.014611323
3.4,0.01286087,0.017471123,0.029962142,0.984225911,0.061246278,0.069192442,0.014976181,0.014657269
3.42,0.012893465,0.017543942,0.030186081,1.009476413,0.061983562,0.070096035,0.015028092,0.014703541
3.44,0.012926352,0.017617308,0.030412054,1.035247834,0.062730093,0.07100909,0.015080408,0.014750143
3.46,0.012959536,0.017691226,0.03064008,1.061542821,0.063485982,0.07193161,0.015133135,0.014797077
3.48,0.012993018,0.017765704,0.030870179,1.08836343,0.064251344,0.072863594,0.015186276,0.014844346
3.5,0.013026803,0.017840745,0.03110237,1.115711082,0.065026294,0.07380504,0.015239834,0.014891952
3.52,0.013060892,0.017916357,0.031336674,1.143586516,0.065810949,0.074755938,0.015293813,0.014939898
3.54,0.01309529,0.017992545,0.03157311,1.171989736,0.066605425,0.075716279,0.015348218,0.014988188
3.56,0.013129998,0.018069316,0.031811699,1.200919963,0.067409842,0.076686046,0.015403052,0.015036825
3.58,0.01316502,0.018146676,0.032052462,1.23037558,0.06822432,0.077665221,0.015458319,0.01508581
3.6,0.01320036,0.01822463,0.032295418,1.260354076,0.069048982,0.078653781,0.015514023,0.015135147
3.62,0.01323602,0.018303186,0.03254059,1.290851993,0.06988395,0.0796517,0.015570168,0.01518484
3.64,0.013272004,0.01838235,0.032787998,1.321864869,0.070729349,0.080658945,0.015626758,0.015234891
3.66,0.013308314,0.018462128,0.033037663,1.353387174,0.071585305,0.081675481,0.015683798,0.015285303
3.68,0.013344955,0.018542527,0.033289608,1.385412261,0.072451946,0.082701269,0.015741291,0.01533608
3.7,0.013381929,0.018623554,0.033543852,1.417932296,0.0733294,0.083736265,0.015799242,0.015387223
3.72,0.01341924,0.018705216,0.033800419,1.450938208,0.074217799,0.084780419,0.015857656,0.015438738
3.74,0.013456892,0.018787519,0.034059331,1.484419623,0.075117273,0.085833678,0.015916535,0.015490626
3.76,0.013494887,0.018870471,0.034320609,1.51836481,0.076027956,0.086895984,0.015975885,0.015542892
3.78,0.013533229,0.018954078,0.034584277,1.552760621,0.076949982,0.087967275,0.016035711,0.015595538
3.8,0.013571922,0.019038348,0.034850356,1.58759244,0.07788349,0.089047482,0.016096016,0.015648567
3.82,0.013610969,0.019123287,0.03511887,1.622844124,0.078828615,0.090136533,0.016156805,0.015701984
3.84,0.013650374,0.019208905,0.035389842,1.65849796,0.079785498,0.09123435,0.016218083,0.01575579
3.86,0.013690141,0.019295207,0.035663295,1.694534613,0.08075428,0.092340851,0.016279855,0.015809991
3.88,0.013730274,0.019382202,0.035939252,1.730933091,0.081735103,0.093455948,0.016342125,0.015864589
3.9,0.013770775,0.019469896,0.036217738,1.767670706,0.082728111,0.094579546,0.016404897,0.015919587
3.92,0.01381165,0.019558299,0.036498776,1.804723043,0.083733451,0.09571155,0.016468178,0.01597499
